Distance(au)                    Energy(au)
0.65                    -0.84440358205
0.6547                    -0.851646989189
0.6594                    -0.858740106385
0.664                    -0.865540102366
0.6687                    -0.872345929891
0.6734                    -0.879011478636
0.6781                    -0.885539923094
0.6827                    -0.891799672053
0.6874                    -0.898065836135
0.6921                    -0.90420383674
0.6968                    -0.910216525817
0.7015                    -0.916106641096
0.7061                    -0.921755331205
0.7108                    -0.927410759895
0.7155                    -0.932951409357
0.7202                    -0.938379759603
0.7248                    -0.943586195121
0.7295                    -0.948799395481
0.7342                    -0.953907311056
0.7389                    -0.958912177948
0.7435                    -0.963712871102
0.7482                    -0.968520203111
0.7529                    -0.973230816931
0.7576                    -0.977846731396
0.7623                    -0.982369914352
0.7669                    -0.98670891069
0.7716                    -0.991054209805
0.7763                    -0.995312349668
0.781                    -0.999485108494
0.7856                    -1.00348807711
0.7903                    -1.0074969593
0.795                    -1.011425500822
0.7997                    -1.015275312511
0.8044                    -1.0190479666
0.809                    -1.022667115037
0.8137                    -1.026291585027
0.8184                    -1.029843364897
0.8231                    -1.03332388613
0.8277                    -1.036662697592
0.8324                    -1.040006307992
0.8371                    -1.043282732292
0.8418                    -1.046493276589
0.8464                    -1.049572946707
0.8511                    -1.052656867531
0.8558                    -1.055678627168
0.8605                    -1.058639418395
0.8652                    -1.06154040732
0.8698                    -1.064322861538
0.8745                    -1.067108852017
0.8792                    -1.069838359784
0.8839                    -1.072512449788
0.8885                    -1.075076983835
0.8932                    -1.07764446358
0.8979                    -1.08015955931
0.9026                    -1.082623245042
0.9073                    -1.085036473738
0.9119                    -1.087350395329
0.9166                    -1.089666511621
0.9213                    -1.091934889651
0.926                    -1.09415640441
0.9306                    -1.096286098029
0.9353                    -1.098417390156
0.94                    -1.10050431861
0.9447                    -1.102547688394
0.9493                    -1.104506162277
0.954                    -1.106465650391
0.9587                    -1.10838388215
0.9634                    -1.110261599336
0.9681                    -1.112099528587
0.9727                    -1.11386051035
0.9774                    -1.115621794046
0.9821                    -1.117345367368
0.9868                    -1.119031899566
0.9914                    -1.120647310962
0.9961                    -1.122262467632
1.0008                    -1.12384249625
1.0055                    -1.125388013165
1.0102                    -1.126899622146
1.0148                    -1.128346804566
1.0195                    -1.129793051129
1.0242                    -1.131207117248
1.0289                    -1.132589560031
1.0335                    -1.133912493192
1.0382                    -1.135233961773
1.0429                    -1.136525403157
1.0476                    -1.137787332941
1.0523                    -1.139020256895
1.0569                    -1.140199338882
1.0616                    -1.141376321837
1.0663                    -1.142525749997
1.071                    -1.143648092429
1.0756                    -1.144720770695
1.0803                    -1.145790866935
1.085                    -1.146835223992
1.0897                    -1.147854277311
1.0943                    -1.148827557595
1.099                    -1.149797793367
1.1037                    -1.15074397471
1.1084                    -1.15166650541
1.1131                    -1.152565781821
1.1177                    -1.153423781053
1.1224                    -1.154278182176
1.1271                    -1.155110465544
1.1318                    -1.155920998538
1.1364                    -1.156693571766
1.1411                    -1.157462122939
1.1458                    -1.158209978069
1.1505                    -1.158937478118
1.1552                    -1.159644958031
1.1598                    -1.160318315523
1.1645                    -1.160987144259
1.1692                    -1.16163691487
1.1739                    -1.162267938873
1.1785                    -1.162867679036
1.1832                    -1.163462506463
1.1879                    -1.164039484039
1.1926                    -1.16459890261
1.1972                    -1.16512969088
1.2019                    -1.165655202777
1.2066                    -1.166163993042
1.2113                    -1.166656333262
1.216                    -1.167132490661
1.2206                    -1.167583099413
1.2253                    -1.168028004986
1.23                    -1.168457496813
1.2347                    -1.168871824437
1.2393                    -1.16926288875
1.244                    -1.169647929373
1.2487                    -1.170018524003
1.2534                    -1.170374905641
1.2581                    -1.170717303104
1.2627                    -1.171039090828
1.2674                    -1.171354476845
1.2721                    -1.171656537456
1.2768                    -1.171945486258
1.2814                    -1.172215792796
1.2861                    -1.172479412374
1.2908                    -1.172730535125
1.2955                    -1.172969360515
1.3002                    -1.173196084969
1.3048                    -1.173406453485
1.3095                    -1.173609798987
1.3142                    -1.173801609155
1.3189                    -1.173982067604
1.3235                    -1.174147868662
1.3282                    -1.174306395717
1.3329                    -1.174454101617
1.3376                    -1.174591158773
1.3422                    -1.174715151815
1.3469                    -1.174831636016
1.3516                    -1.174937969789
1.3563                    -1.175034315205
1.361                    -1.175120781572
1.3656                    -1.175196086466
1.3703                    -1.175263612458
1.375                    -1.175321772673
1.3797                    -1.175370717222
1.3843                    -1.175409838712
1.389                    -1.175440980999
1.3937                    -1.175463340574
1.3984                    -1.175477058187
1.4031                    -1.175482272305
1.4077                    -1.175479272422
1.4124                    -1.17546805981
1.4171                    -1.175448742945
1.4218                    -1.175421451729
1.4264                    -1.175387142157
1.4311                    -1.175344446064
1.4358                    -1.175294149964
1.4405                    -1.175236375495
1.4451                    -1.175172704317
1.4498                    -1.175100484292
1.4545                    -1.175021137297
1.4592                    -1.17493477808
1.4639                    -1.174841519415
1.4685                    -1.17474367101
1.4732                    -1.174637086033
1.4779                    -1.174523927562
1.4826                    -1.17440430194
1.4872                    -1.174281059947
1.4919                    -1.174148944596
1.4966                    -1.174010669445
1.5013                    -1.173866334881
1.506                    -1.173716039648
1.5106                    -1.173563264066
1.5153                    -1.173401459969
1.52                    -1.173233981265
1.5247                    -1.173060921114
1.5293                    -1.17288622688
1.534                    -1.172702392129
1.5387                    -1.172513245687
1.5434                    -1.172318875419
1.548                    -1.17212366565
1.5527                    -1.171919212791
1.5574                    -1.171709790108
1.5621                    -1.171495480452
1.5668                    -1.171276365209
1.5714                    -1.171057335786
1.5761                    -1.170828946778
1.5808                    -1.170595987445
1.5855                    -1.170358534358
1.5901                    -1.170121854577
1.5948                    -1.169875730565
1.5995                    -1.169625333915
1.6042                    -1.169370736482
1.6089                    -1.169112009157
1.6135                    -1.168854854782
1.6182                    -1.168588160182
1.6229                    -1.168317540322
1.6276                    -1.168043062011
1.6322                    -1.167770750625
1.6369                    -1.167488830062
1.6416                    -1.167203243919
1.6463                    -1.166914054946
1.651                    -1.166621325321
1.6556                    -1.166331454207
1.6603                    -1.166031897673
1.665                    -1.165728979876
1.6697                    -1.165422759504
1.6743                    -1.165119912026
1.679                    -1.164807326157
1.6837                    -1.164491607404
1.6884                    -1.164172811519
1.693                    -1.163857870961
1.6977                    -1.163533145884
1.7024                    -1.163205503988
1.7071                    -1.162874997848
1.7118                    -1.162541679073
1.7164                    -1.162212777792
1.7211                    -1.161874043299
1.7258                    -1.161532645987
1.7305                    -1.161188634606
1.7351                    -1.160849457817
1.7398                    -1.16050041565
1.7445                    -1.160148900649
1.7492                    -1.159794958815
1.7539                    -1.159438635787
1.7585                    -1.15908763128
1.7632                    -1.158726727454
1.7679                    -1.158363573534
1.7726                    -1.157998212178
1.7772                    -1.157638527618
1.7819                    -1.157268921701
1.7866                    -1.1568972317
1.7913                    -1.156523497807
1.7959                    -1.156155774572
1.8006                    -1.155778112299
1.8053                    -1.155398522117
1.81                    -1.155017041711
1.8147                    -1.154633708509
1.8193                    -1.154256772365
1.824                    -1.153869880175
1.8287                    -1.153481242742
1.8334                    -1.153090895037
1.838                    -1.152707229854
1.8427                    -1.152313599604
1.8474                    -1.151918360666
1.8521                    -1.151521546289
1.8568                    -1.151123189175
1.8614                    -1.150731844896
1.8661                    -1.150330529726
1.8708                    -1.14992776666
1.8755                    -1.149523586588
1.8801                    -1.149126663513
1.8848                    -1.148719769478
1.8895                    -1.148311548361
1.8942                    -1.147902029615
1.8988                    -1.14749999535
1.9035                    -1.147087993966
1.9082                    -1.146674780211
1.9129                    -1.146260381862
1.9176                    -1.14584482653
1.9222                    -1.145437018459
1.9269                    -1.145019253567
1.9316                    -1.144600411001
1.9363                    -1.144180517125
1.9409                    -1.143768563848
1.9456                    -1.143346665015
1.9503                    -1.142923790157
1.955                    -1.142499964027
1.9597                    -1.14207521074
1.9643                    -1.141658619878
1.969                    -1.141232101997
1.9737                    -1.14080472703
1.9784                    -1.140376517775
1.983                    -1.139956633134
1.9877                    -1.139526839339
1.9924                    -1.139096276896
1.9971                    -1.138664967611
2.0018                    -1.138232932977
2.0064                    -1.137809407561
2.0111                    -1.137375997703
2.0158                    -1.136941923209
2.0205                    -1.136507204207
2.0251                    -1.136081128933
2.0298                    -1.135645395911
2.0345                    -1.135208869112
2.0392                    -1.134771772075
2.0438                    -1.134343440602
2.0485                    -1.133905269522
2.0532                    -1.133466582598
2.0579                    -1.133027397701
2.0626                    -1.132587732312
2.0672                    -1.132156973055
2.0719                    -1.131716408032
2.0766                    -1.131275413613
2.0813                    -1.130834006564
2.0859                    -1.130401607433
2.0906                    -1.129959432296
2.0953                    -1.129516893022
2.1                    -1.129074005557
2.1047                    -1.128630785494
2.1093                    -1.128196688571
2.114                    -1.127752855927
2.1187                    -1.127308736269
2.1234                    -1.126864344439
2.128                    -1.126429158314
2.1327                    -1.125984270974
2.1374                    -1.125539154568
2.1421                    -1.125093823163
2.1467                    -1.124657771935
2.1514                    -1.124212055734
2.1561                    -1.1237661652
2.1608                    -1.123320113556
2.1655                    -1.122873913952
2.1701                    -1.122437077019
2.1748                    -1.121990622281
2.1795                    -1.121544057306
2.1842                    -1.121097394365
2.1888                    -1.120660151659
2.1935                    -1.120213330335
2.1982                    -1.119766446516
2.2029                    -1.119319511747
2.2076                    -1.118872537383
2.2122                    -1.118435045525
2.2169                    -1.11798802557
2.2216                    -1.117540998836
2.2263                    -1.117093975966
2.2309                    -1.116656478064
2.2356                    -1.116209493648
2.2403                    -1.115762543774
2.245                    -1.115315638771
2.2496                    -1.114878295187
2.2543                    -1.114431507607
2.259                    -1.113984793846
2.2637                    -1.113538163334
2.2684                    -1.113091625395
2.273                    -1.112654686794
2.2777                    -1.112208359121
2.2824                    -1.111762151208
2.2871                    -1.111316071859
2.2917                    -1.110879616452
2.2964                    -1.110433817186
2.3011                    -1.109988172232
2.3058                    -1.109542689992
2.3105                    -1.109097378836
2.3151                    -1.108661715929
2.3198                    -1.108216767317
2.3245                    -1.107772014014
2.3292                    -1.107327463872
2.3338                    -1.106892576474
2.3385                    -1.106448451307
2.3432                    -1.106004552305
2.3479                    -1.105560887063
2.3526                    -1.105117462997
2.3572                    -1.104683714054
2.3619                    -1.104240788726
2.3666                    -1.103798126219
2.3713                    -1.10335573353
2.3759                    -1.102923021446
2.3806                    -1.102481183142
2.3853                    -1.102039635154
2.39                    -1.101598384153
2.3946                    -1.101166815378
2.3993                    -1.10072617134
2.404                    -1.10028584361
2.4087                    -1.099845838478
2.4134                    -1.099406162099
2.418                    -1.098976164722
2.4227                    -1.09853715678
2.4274                    -1.098098495409
2.4321                    -1.097660186489
2.4367                    -1.097231550016
2.4414                    -1.096793955129
2.4461                    -1.096356729344
2.4508                    -1.095919878094
2.4555                    -1.09548340669
2.4601                    -1.095056594751
2.4648                    -1.094620890279
2.4695                    -1.094185580959
2.4742                    -1.093750671748
2.4788                    -1.093325408039
2.4835                    -1.092891304809
2.4882                    -1.092457615943
2.4929                    -1.092024346088
2.4975                    -1.09160070479
2.5022                    -1.091168277305
2.5069                    -1.090736282117
2.5116                    -1.090304723544
2.5163                    -1.089873605767
2.5209                    -1.089452091574
2.5256                    -1.089021858404
2.5303                    -1.088592078259
2.535                    -1.088162755224
2.5396                    -1.087743013071
2.5443                    -1.087314605944
2.549                    -1.086886667383
2.5537                    -1.086459201186
2.5584                    -1.086032210978
2.563                    -1.08561477018
2.5677                    -1.085188732738
2.5724                    -1.084763182045
2.5771                    -1.084338121644
2.5817                    -1.083922583167
2.5864                    -1.083498503063
2.5911                    -1.08307492347
2.5958                    -1.082651847693
2.6005                    -1.082229279037
2.6051                    -1.081816195313
2.6098                    -1.081394639642
2.6145                    -1.080973600649
2.6192                    -1.080553081456
2.6238                    -1.080142015785
2.6285                    -1.079722534204
2.6332                    -1.079303581507
2.6379                    -1.078885160697
2.6425                    -1.078476160287
2.6472                    -1.078058800487
2.6519                    -1.077641981079
2.6566                    -1.077225705011
2.6613                    -1.07680997495
2.6659                    -1.076403621564
2.6706                    -1.075988979927
2.6753                    -1.075574892287
2.68                    -1.07516136124
2.6846                    -1.074757170127
2.6893                    -1.07434474788
2.694                    -1.073932818417
2.6987                    -1.073521537893
2.7034                    -1.073110826398
2.708                    -1.072709406547
2.7127                    -1.0722998274
2.7174                    -1.071890823645
2.7221                    -1.071482397318
2.7267                    -1.07108322202
2.7314                    -1.070675944198
2.7361                    -1.070269249684
2.7408                    -1.069863140364
2.7454                    -1.06946624004
2.7501                    -1.069061293984
2.7548                    -1.068656938606
2.7595                    -1.068253175514
2.7642                    -1.067850006521
2.7688                    -1.067455992445
2.7735                    -1.067054003873
2.7782                    -1.066652614293
2.7829                    -1.066251825345
2.7875                    -1.065860146921
2.7922                    -1.065460551009
2.7969                    -1.065061560386
2.8016                    -1.064663176537
2.8063                    -1.064265400944
2.8109                    -1.063876679053
2.8156                    -1.063480111333
2.8203                    -1.06308415616
2.825                    -1.062688814991
2.8296                    -1.062302481195
2.8343                    -1.061908358994
2.839                    -1.061514854859
2.8437                    -1.061121970064
2.8483                    -1.060738045606
2.853                    -1.060346390325
2.8577                    -1.059955358296
2.8624                    -1.059564950781
2.8671                    -1.059175169022
2.8717                    -1.058794287563
2.8764                    -1.058405747571
